
t/1	ANGLE/1
0.000000000E0	8.241211600E0
4.000000000E-2	8.249800505E0
8.000000000E-2	8.753014973E0
1.200000000E-1	9.602188469E0
1.600000000E-1	1.064160048E1
2.000000000E-1	1.177386972E1
2.400000000E-1	1.304555854E1
2.800000000E-1	1.389559662E1
3.200000000E-1	1.430510949E1
3.600000000E-1	1.474311937E1
4.000000000E-1	1.528452078E1
4.400000000E-1	1.597404195E1
4.800000000E-1	1.648152741E1
5.200000000E-1	1.697464608E1
5.600000000E-1	1.696850240E1
6.000000000E-1	1.695972363E1
6.400000000E-1	1.692303519E1
6.800000000E-1	1.680901594E1
7.200000000E-1	1.660881577E1
7.600000000E-1	1.656749285E1
8.000000000E-1	1.654055093E1
8.400000000E-1	1.656714376E1
8.800000000E-1	1.653393871E1
9.200000000E-1	1.650860694E1
9.600000000E-1	1.649322290E1
1.000000000E0	1.650788783E1
1.040000000E0	1.649925921E1
1.080000000E0	1.650720246E1
1.120000000E0	1.647855450E1
1.160000000E0	1.646249848E1
1.200000000E0	1.628012992E1
1.240000000E0	1.601351812E1
1.280000000E0	1.617797587E1
1.320000000E0	1.702328782E1
1.360000000E0	2.055076570E1
1.400000000E0	2.059869235E1
1.440000000E0	2.291615520E1
1.480000000E0	2.632058540E1
1.520000000E0	3.105906281E1
1.560000000E0	3.727086908E1
1.600000000E0	4.438325450E1
1.640000000E0	5.204020883E1
1.680000000E0	5.967411662E1
1.720000000E0	6.767940121E1
1.760000000E0	7.755204255E1
1.800000000E0	8.829284405E1
1.840000000E0	9.502822778E1
1.880000000E0	1.002397950E2
1.920000000E0	1.023562505E2
1.960000000E0	1.037816808E2
2.000000000E0	1.044712694E2
2.040000000E0	1.050270442E2
2.080000000E0	1.050619918E2
2.120000000E0	1.046539401E2
2.160000000E0	1.039314619E2
2.200000000E0	1.024899059E2
2.240000000E0	1.010573293E2
2.280000000E0	9.851928966E1
2.320000000E0	9.518522535E1
2.360000000E0	9.120143923E1
2.400000000E0	8.615691466E1
2.440000000E0	8.085745559E1
2.480000000E0	7.456264610E1
2.520000000E0	6.881008361E1
2.560000000E0	6.179594233E1
2.600000000E0	5.609875765E1
2.640000000E0	5.006871605E1
2.680000000E0	4.455198967E1
2.720000000E0	3.926670779E1
2.760000000E0	3.526561497E1
2.800000000E0	3.161708110E1
2.840000000E0	2.922693791E1
2.880000000E0	2.738750701E1
2.920000000E0	2.587281549E1
2.960000000E0	2.468402298E1
3.000000000E0	2.355158298E1
3.040000000E0	2.352430217E1
3.080000000E0	2.354961379E1
3.120000000E0	2.370984192E1
3.160000000E0	2.405549204E1
3.200000000E0	2.450192062E1
3.240000000E0	2.445246396E1
3.280000000E0	2.481583484E1
3.320000000E0	2.523262640E1
3.360000000E0	2.674305924E1
3.400000000E0	2.670073493E1
3.440000000E0	2.829541027E1
3.480000000E0	3.009705400E1
3.520000000E0	3.289065173E1
3.560000000E0	3.667832230E1
3.600000000E0	4.183982442E1
3.640000000E0	4.815065281E1
3.680000000E0	5.521438644E1
3.720000000E0	6.338636428E1
3.760000000E0	7.235987790E1
3.800000000E0	8.035197721E1
3.840000000E0	8.681943025E1
3.880000000E0	9.130250010E1
3.920000000E0	9.335738547E1
3.960000000E0	9.445287538E1
4.000000000E0	9.494448593E1
4.040000000E0	9.537259769E1
4.080000000E0	9.545563568E1
4.120000000E0	9.513040012E1
4.160000000E0	9.434843532E1
4.200000000E0	9.367322505E1
4.240000000E0	9.282680676E1
4.280000000E0	9.167630855E1
4.320000000E0	9.025929419E1
4.360000000E0	8.852619014E1
4.400000000E0	8.580386034E1
4.440000000E0	8.290471815E1
4.480000000E0	7.876033396E1
4.520000000E0	7.546689096E1
4.560000000E0	7.074922145E1
4.600000000E0	6.629894415E1
4.640000000E0	6.134683424E1
4.680000000E0	5.631922596E1
4.720000000E0	5.149378063E1
4.760000000E0	4.730829391E1
4.800000000E0	4.314918764E1
4.840000000E0	3.937479879E1
4.880000000E0	3.581906734E1
4.920000000E0	3.294361445E1
4.960000000E0	3.015022346E1
5.000000000E0	2.781262850E1
5.040000000E0	2.613911217E1
5.080000000E0	2.496179914E1
5.120000000E0	2.441003562E1
5.160000000E0	2.442454648E1
5.200000000E0	2.514236480E1
5.240000000E0	2.606275916E1
5.280000000E0	2.750215080E1
5.320000000E0	2.923648468E1
5.360000000E0	3.144261099E1
5.400000000E0	3.401441598E1
5.440000000E0	3.653189798E1
5.480000000E0	4.006583914E1
5.520000000E0	4.516186151E1
5.560000000E0	5.285104800E1
5.600000000E0	6.356540123E1
5.640000000E0	7.520375371E1
5.680000000E0	8.464386505E1
5.720000000E0	9.023275500E1
5.760000000E0	9.271134515E1
5.800000000E0	9.407041555E1
5.840000000E0	9.442096431E1
5.880000000E0	9.474497192E1
5.920000000E0	9.445604850E1
5.960000000E0	9.387744089E1
6.000000000E0	9.316667455E1
6.040000000E0	9.213226783E1
6.080000000E0	9.066273924E1
6.120000000E0	8.855286790E1
6.160000000E0	8.565778500E1
6.200000000E0	8.116425251E1
6.240000000E0	7.582784750E1
6.280000000E0	7.046697584E1
6.320000000E0	6.409909617E1
6.360000000E0	5.773198931E1
6.400000000E0	5.132756104E1
6.440000000E0	4.516670269E1
6.480000000E0	3.982801607E1
6.520000000E0	3.443815303E1
6.560000000E0	3.039915905E1
6.600000000E0	2.697329759E1
6.640000000E0	2.429977754E1
6.680000000E0	2.239095036E1
6.720000000E0	2.101040721E1
6.760000000E0	1.993724581E1
6.800000000E0	1.954375725E1
6.840000000E0	1.926034741E1
6.880000000E0	1.908683290E1
6.920000000E0	1.926091773E1
6.960000000E0	1.966268301E1
7.000000000E0	1.988022550E1
7.040000000E0	2.036853254E1
7.080000000E0	2.084097957E1
7.120000000E0	2.093376551E1
7.160000000E0	2.115203740E1
7.200000000E0	2.150692848E1
7.240000000E0	2.206286252E1
7.280000000E0	2.274389824E1
7.320000000E0	2.409280752E1
7.360000000E0	2.558894784E1
7.400000000E0	2.796982453E1
7.440000000E0	3.075632842E1
7.480000000E0	3.431302142E1
7.520000000E0	3.795443170E1
7.560000000E0	4.255793632E1
7.600000000E0	4.756039594E1
7.640000000E0	5.400442851E1
7.680000000E0	6.335972260E1
7.720000000E0	7.556773065E1
7.760000000E0	8.433584272E1
7.800000000E0	8.982764127E1
7.840000000E0	9.198573355E1
7.880000000E0	9.319220849E1
7.920000000E0	9.431688377E1
7.960000000E0	9.463935724E1
8.000000000E0	9.450660922E1
8.040000000E0	9.430498123E1
8.080000000E0	9.302366439E1
8.120000000E0	9.302866994E1
8.160000000E0	9.211843474E1
8.200000000E0	9.080084801E1
8.240000000E0	8.916368329E1
8.280000000E0	8.678722113E1
8.320000000E0	8.329376251E1
8.360000000E0	7.983230388E1
8.400000000E0	7.521824258E1
8.440000000E0	7.067881265E1
8.480000000E0	6.606973741E1
8.520000000E0	6.137823588E1
8.560000000E0	5.633303230E1
8.600000000E0	5.164546161E1
8.640000000E0	4.719057320E1
8.680000000E0	4.332990545E1
8.720000000E0	3.934278294E1
8.760000000E0	3.630703747E1
8.800000000E0	3.334659343E1
8.840000000E0	3.103340850E1
8.880000000E0	2.871404726E1
8.920000000E0	2.659433269E1
8.960000000E0	2.533307955E1
9.000000000E0	2.427455521E1
9.040000000E0	2.360593319E1
9.080000000E0	2.328476733E1
9.120000000E0	2.323064023E1
9.160000000E0	2.339489374E1
9.200000000E0	2.398581165E1
9.240000000E0	2.576133905E1
9.280000000E0	2.714875764E1
9.320000000E0	2.869613685E1
9.360000000E0	3.036678726E1
9.400000000E0	3.285286214E1
9.440000000E0	3.568277490E1
9.480000000E0	3.938847953E1
9.520000000E0	4.417590623E1
9.560000000E0	4.958292063E1
9.600000000E0	5.657113883E1
9.640000000E0	6.533542567E1
9.680000000E0	7.591382427E1
9.720000000E0	8.508822506E1
9.760000000E0	9.048473603E1
9.800000000E0	9.144356883E1
9.840000000E0	9.268515675E1
9.880000000E0	9.349318675E1
9.920000000E0	9.404275409E1
9.960000000E0	9.405675125E1
1.000000000E1	9.394576011E1
1.004000000E1	9.350762063E1
1.008000000E1	9.693895152E1
1.012000000E1	9.196460828E1
1.016000000E1	9.069306476E1
1.020000000E1	8.904353242E1
1.024000000E1	8.652884884E1
1.028000000E1	8.352741166E1
1.032000000E1	7.957986652E1
1.036000000E1	7.584188105E1
1.040000000E1	7.120408588E1
1.044000000E1	6.623301186E1
1.048000000E1	6.086917128E1
1.052000000E1	5.561356173E1
1.056000000E1	5.068342595E1
1.060000000E1	4.611707504E1
1.064000000E1	4.130745920E1
1.068000000E1	3.711715776E1
1.072000000E1	3.296610657E1
1.076000000E1	2.956796033E1
1.080000000E1	2.696686697E1
1.084000000E1	2.481147914E1
1.088000000E1	2.314520698E1
1.092000000E1	2.176280110E1
1.096000000E1	2.083944460E1
1.100000000E1	2.020485245E1
1.104000000E1	2.004781898E1
1.108000000E1	2.010866507E1
1.112000000E1	2.045358203E1
1.116000000E1	2.077756575E1
1.120000000E1	2.229239856E1
1.124000000E1	2.296360843E1
1.128000000E1	2.397078445E1
1.132000000E1	2.542108323E1
1.136000000E1	2.690437913E1
1.140000000E1	2.866991681E1
1.144000000E1	3.112894182E1
1.148000000E1	3.434735245E1
1.152000000E1	3.793588366E1
1.156000000E1	4.291006883E1
1.160000000E1	4.892346875E1
1.164000000E1	5.646654923E1
1.168000000E1	6.514731042E1
1.172000000E1	7.628013266E1
1.176000000E1	8.567158198E1
1.180000000E1	9.150448306E1
1.184000000E1	9.469442847E1
1.188000000E1	9.659555015E1
1.192000000E1	9.747744643E1
1.196000000E1	9.841737325E1
1.200000000E1	9.882618149E1
1.204000000E1	9.875217771E1
1.208000000E1	9.841350443E1
1.212000000E1	9.797954195E1
1.216000000E1	9.741972439E1
1.220000000E1	9.653290006E1
1.224000000E1	9.503148359E1
1.228000000E1	9.267047533E1
1.232000000E1	9.036958793E1
1.236000000E1	8.657959004E1
1.240000000E1	8.209277357E1
1.244000000E1	7.804580754E1
1.248000000E1	7.283580594E1
1.252000000E1	6.770220433E1
1.256000000E1	6.190385974E1
1.260000000E1	5.599046737E1
1.264000000E1	5.030562302E1
1.268000000E1	4.455894917E1
1.272000000E1	3.857564905E1
1.276000000E1	3.289218006E1
1.280000000E1	2.766065548E1
1.284000000E1	2.280982334E1
1.288000000E1	1.858092024E1
1.292000000E1	1.537795109E1
1.296000000E1	1.280882142E1
1.300000000E1	1.107612848E1
1.304000000E1	1.003858278E1
1.308000000E1	9.646454525E0
1.312000000E1	9.645947290E0
1.316000000E1	9.712011568E0
1.320000000E1	1.017387903E1
1.324000000E1	1.082633758E1
1.328000000E1	1.125990386E1
1.332000000E1	1.181221145E1
1.336000000E1	1.235395988E1
1.340000000E1	1.304752428E1
1.344000000E1	1.385878535E1
1.348000000E1	1.485846594E1
1.352000000E1	1.619294133E1
1.356000000E1	1.779335418E1
1.360000000E1	2.013148611E1
1.364000000E1	2.319776980E1
1.368000000E1	2.732840830E1
1.372000000E1	3.327423288E1
1.376000000E1	4.014290784E1
1.380000000E1	5.007114781E1
1.384000000E1	6.202499557E1
1.388000000E1	7.587274266E1
1.392000000E1	8.739956849E1
1.396000000E1	9.435550464E1
1.400000000E1	9.604916529E1
1.404000000E1	9.822767831E1
1.408000000E1	9.902620541E1
1.412000000E1	9.969612438E1
1.416000000E1	9.976591293E1
1.420000000E1	9.981896684E1
1.424000000E1	9.961601402E1
1.428000000E1	9.917670386E1
1.432000000E1	9.889236533E1
1.436000000E1	9.838661235E1
1.440000000E1	9.750904360E1
1.444000000E1	9.598578021E1
1.448000000E1	9.323622116E1
1.452000000E1	8.954321652E1
1.456000000E1	7.992325551E1
1.460000000E1	7.993881363E1
1.464000000E1	7.466280665E1
1.468000000E1	6.760312550E1
1.472000000E1	6.116040797E1
1.476000000E1	5.395691590E1
1.480000000E1	4.789059982E1
1.484000000E1	4.250228558E1
1.488000000E1	3.781756912E1
1.492000000E1	3.366121365E1
1.496000000E1	3.040795894E1
1.500000000E1	2.768128368E1
1.504000000E1	2.556465419E1
1.508000000E1	2.397328345E1
1.512000000E1	2.250214700E1
1.516000000E1	2.153447900E1
1.520000000E1	2.098377623E1
1.524000000E1	2.055310550E1
1.528000000E1	2.051901662E1
1.532000000E1	2.064405283E1
1.536000000E1	2.075507181E1
1.540000000E1	2.142156896E1
1.544000000E1	2.184157666E1
1.548000000E1	2.252790934E1
1.552000000E1	2.332815017E1
1.556000000E1	2.421567451E1
1.560000000E1	2.542820243E1
1.564000000E1	2.715831225E1
1.568000000E1	2.949254314E1
1.572000000E1	3.256615482E1
1.576000000E1	3.635261182E1
1.580000000E1	4.039655741E1
1.584000000E1	4.556648124E1
1.588000000E1	5.037384411E1
1.592000000E1	5.617893265E1
1.596000000E1	6.358571366E1
1.600000000E1	7.259907055E1
1.604000000E1	8.228653086E1
1.608000000E1	8.907326013E1
1.612000000E1	9.320478742E1
1.616000000E1	9.583963450E1
1.620000000E1	9.703367241E1
1.624000000E1	9.785833396E1
1.628000000E1	9.818863860E1
1.632000000E1	9.832909173E1
1.636000000E1	9.835217478E1
1.640000000E1	9.824062002E1
1.644000000E1	9.788611478E1
1.648000000E1	9.761125099E1
1.652000000E1	9.722620100E1
1.656000000E1	9.650464210E1
1.660000000E1	9.567082186E1
1.664000000E1	9.353791420E1
1.668000000E1	9.070067656E1
1.672000000E1	8.766139259E1
1.676000000E1	8.424258380E1
1.680000000E1	8.014562407E1
1.684000000E1	7.596794314E1
1.688000000E1	7.077736352E1
1.692000000E1	6.571498655E1
1.696000000E1	6.054561633E1
1.700000000E1	5.544808349E1
1.704000000E1	5.064971451E1
1.708000000E1	4.585635341E1
1.712000000E1	4.187142726E1
1.716000000E1	3.806102993E1
1.720000000E1	3.455055823E1
1.724000000E1	3.212415629E1
1.728000000E1	2.982439705E1
1.732000000E1	2.818270796E1
1.736000000E1	2.683226831E1
1.740000000E1	2.591517703E1
1.744000000E1	2.564651247E1
1.748000000E1	2.563928464E1
1.752000000E1	2.559619864E1
1.756000000E1	2.593866374E1
1.760000000E1	2.645369725E1
1.764000000E1	2.690565783E1
1.768000000E1	2.802131926E1
1.772000000E1	2.957146520E1
1.776000000E1	3.188277153E1
1.780000000E1	3.521156955E1
1.784000000E1	4.018666759E1
1.788000000E1	4.733218842E1
1.792000000E1	5.787211804E1
1.796000000E1	7.100286279E1
1.800000000E1	8.292419870E1
1.804000000E1	9.017299687E1
1.808000000E1	9.379949588E1
1.812000000E1	9.654668239E1
1.816000000E1	9.830230553E1
1.820000000E1	9.845523397E1
1.824000000E1	9.864511916E1
1.828000000E1	9.837617108E1
1.832000000E1	9.805940690E1
1.836000000E1	9.766649932E1
1.840000000E1	9.723246059E1
1.844000000E1	9.676169831E1
1.848000000E1	9.596360627E1
1.852000000E1	9.497290164E1
1.856000000E1	9.336625878E1
1.860000000E1	9.078939546E1
1.864000000E1	8.781297563E1
1.868000000E1	8.410505304E1
1.872000000E1	8.027268377E1
1.876000000E1	7.648599897E1
1.880000000E1	7.217094172E1
1.884000000E1	6.720172618E1
1.888000000E1	6.168510676E1
1.892000000E1	5.648907489E1
1.896000000E1	5.110771149E1
1.900000000E1	4.600749639E1
1.904000000E1	4.124609156E1
1.908000000E1	3.755392956E1
1.912000000E1	3.395710786E1
1.916000000E1	3.105071185E1
1.920000000E1	2.876702936E1
1.924000000E1	2.629268781E1
1.928000000E1	2.638061298E1
1.932000000E1	2.571655362E1
1.936000000E1	2.520593025E1
1.940000000E1	2.525999949E1
1.944000000E1	2.540998910E1
1.948000000E1	2.538113418E1
1.952000000E1	2.543859444E1
1.956000000E1	2.526925179E1
1.960000000E1	2.517035087E1
1.964000000E1	2.544712382E1
1.968000000E1	2.543688303E1
1.972000000E1	2.564804937E1
1.976000000E1	2.617612093E1
1.980000000E1	2.673183800E1
1.984000000E1	2.802911048E1
1.988000000E1	3.044899064E1
1.992000000E1	3.426787299E1
1.996000000E1	3.945988420E1
2.000000000E1	4.701376740E1
2.004000000E1	5.625068374E1
2.008000000E1	6.900475315E1
2.012000000E1	8.081921603E1
2.016000000E1	8.956226760E1
2.020000000E1	9.361089629E1
2.024000000E1	9.614057479E1
2.028000000E1	9.749421989E1
2.032000000E1	9.866357099E1
2.036000000E1	9.915745232E1
2.040000000E1	9.925456902E1
2.044000000E1	9.898689151E1
2.048000000E1	9.851689830E1
2.052000000E1	9.803944670E1
2.056000000E1	9.763942506E1
2.060000000E1	9.692642072E1
2.064000000E1	9.602335444E1
2.068000000E1	9.461880843E1
2.072000000E1	9.279535678E1
2.076000000E1	8.959876339E1
2.080000000E1	8.654104691E1
2.084000000E1	8.299992723E1
2.088000000E1	7.875267228E1
2.092000000E1	7.494995037E1
2.096000000E1	7.009618507E1
2.100000000E1	6.541901938E1
2.104000000E1	6.048788790E1
2.108000000E1	5.560602242E1
2.112000000E1	5.097324651E1
2.116000000E1	4.671712210E1
2.120000000E1	4.301058000E1
2.124000000E1	3.904866276E1
2.128000000E1	3.578655058E1
2.132000000E1	3.298138680E1
2.136000000E1	3.025650716E1
2.140000000E1	2.803651273E1
2.144000000E1	2.613424946E1
2.148000000E1	2.471753670E1
2.152000000E1	2.360788087E1
2.156000000E1	2.266070339E1
2.160000000E1	2.193430435E1
2.164000000E1	2.151104840E1
2.168000000E1	2.159826534E1
2.172000000E1	2.188147289E1
2.176000000E1	2.229199351E1
2.180000000E1	2.293603190E1
2.184000000E1	2.394066954E1
2.188000000E1	2.492217456E1
2.192000000E1	2.593913018E1
2.196000000E1	2.702104655E1
2.200000000E1	2.811857535E1
2.204000000E1	2.913883865E1
2.208000000E1	3.024114663E1
2.212000000E1	3.153547177E1
2.216000000E1	3.373169278E1
2.220000000E1	3.661075834E1
2.224000000E1	4.018809822E1
2.228000000E1	4.434094452E1
2.232000000E1	4.920037190E1
2.236000000E1	5.426357264E1
2.240000000E1	6.109561818E1
2.244000000E1	7.309360225E1
2.248000000E1	8.481850815E1
2.252000000E1	9.208753371E1
2.256000000E1	9.628329364E1
2.260000000E1	9.934318615E1
2.264000000E1	1.007889248E2
2.268000000E1	1.016335173E2
2.272000000E1	1.020246079E2
2.276000000E1	1.018660575E2
2.280000000E1	1.012340303E2
2.284000000E1	1.006098778E2
2.288000000E1	1.000231583E2
2.292000000E1	9.921663472E1
2.296000000E1	9.839836586E1
2.300000000E1	9.738591338E1
2.304000000E1	9.645580546E1
2.308000000E1	9.495173482E1
2.312000000E1	9.266489311E1
2.316000000E1	9.044059725E1
2.320000000E1	8.711595755E1
2.324000000E1	8.317216253E1
2.328000000E1	7.855846284E1
2.332000000E1	7.392560369E1
2.336000000E1	6.816362059E1
2.340000000E1	6.209990981E1
2.344000000E1	5.601698276E1
2.348000000E1	5.011238194E1
2.352000000E1	4.432714668E1
2.356000000E1	3.911027419E1
2.360000000E1	3.411380442E1
2.364000000E1	2.998136739E1
2.368000000E1	2.643939845E1
2.372000000E1	2.398657753E1
2.376000000E1	2.204812121E1
2.380000000E1	2.077941729E1
2.384000000E1	2.017282051E1
2.388000000E1	2.006309370E1
2.392000000E1	2.061309374E1
2.396000000E1	2.189437483E1
2.400000000E1	2.377225864E1
2.404000000E1	2.633452831E1
2.408000000E1	3.001938708E1
2.412000000E1	3.436168354E1
2.416000000E1	3.938369287E1
2.420000000E1	4.521780791E1
2.424000000E1	5.257822348E1
2.428000000E1	6.379874299E1
2.432000000E1	7.853963849E1
2.436000000E1	8.662267707E1
2.440000000E1	9.320762669E1
2.444000000E1	9.653032183E1
2.448000000E1	9.861421362E1
2.452000000E1	9.965336956E1
2.456000000E1	1.010035869E2
2.460000000E1	1.009134940E2
2.464000000E1	1.012574511E2
2.468000000E1	1.003168158E2
2.472000000E1	9.974760909E1
2.476000000E1	9.944644287E1
2.480000000E1	9.833298956E1
2.484000000E1	9.684907723E1
2.488000000E1	9.542429722E1
2.492000000E1	9.227442441E1
2.496000000E1	8.886801527E1
2.500000000E1	8.524689605E1
2.504000000E1	8.016739014E1
2.508000000E1	7.578582274E1
2.512000000E1	6.967369000E1
2.516000000E1	6.451561832E1
2.520000000E1	5.887631726E1
2.524000000E1	5.325433654E1
2.528000000E1	4.782714275E1
2.532000000E1	4.220456753E1
2.536000000E1	3.770551866E1
2.540000000E1	3.418776788E1
2.544000000E1	3.146419019E1
2.548000000E1	2.882615610E1
2.552000000E1	2.640455101E1
2.556000000E1	2.435693389E1
2.560000000E1	2.273384857E1
2.564000000E1	2.123267641E1
2.568000000E1	2.132742023E1
2.572000000E1	2.135310557E1
2.576000000E1	2.210302863E1
2.580000000E1	2.356457863E1
2.584000000E1	2.567641007E1
2.588000000E1	2.851732549E1
2.592000000E1	3.241246934E1
2.596000000E1	3.711027444E1
2.600000000E1	4.275736471E1
2.604000000E1	4.906265170E1
2.608000000E1	5.697535272E1
2.612000000E1	6.705750428E1
2.616000000E1	8.034179956E1
2.620000000E1	8.827994682E1
2.624000000E1	9.612210713E1
2.628000000E1	9.594116806E1
2.632000000E1	9.816469969E1
2.636000000E1	9.975626604E1
2.640000000E1	1.007753888E2
2.644000000E1	1.006021121E2
2.648000000E1	1.004308247E2
2.652000000E1	1.000223939E2
2.656000000E1	9.930441204E1
2.660000000E1	9.820813445E1
2.664000000E1	9.775457004E1
2.668000000E1	9.631830077E1
2.672000000E1	9.501701812E1
2.676000000E1	9.286592263E1
2.680000000E1	8.916553439E1
2.684000000E1	8.540598277E1
2.688000000E1	7.589112498E1
2.692000000E1	7.588994325E1
2.696000000E1	6.986565911E1
2.700000000E1	6.595794672E1
2.704000000E1	5.761727570E1
2.708000000E1	5.053681189E1
2.712000000E1	4.315660940E1
2.716000000E1	3.602882627E1
2.720000000E1	2.871669117E1
2.724000000E1	2.280340005E1
2.728000000E1	1.802653232E1
2.732000000E1	1.421771135E1
2.736000000E1	1.120740570E1
2.740000000E1	9.178907256E0
2.744000000E1	8.138609290E0
2.748000000E1	7.891942723E0
2.752000000E1	8.021982200E0
2.756000000E1	8.393055510E0
2.760000000E1	8.865268169E0
2.764000000E1	9.280725971E0
2.768000000E1	9.911376039E0
2.772000000E1	1.061704000E1
2.776000000E1	1.144287710E1
2.780000000E1	1.246660104E1
2.784000000E1	1.361059185E1
2.788000000E1	1.504216755E1
2.792000000E1	1.688351965E1
2.796000000E1	1.897592020E1
2.800000000E1	2.152883479E1
2.804000000E1	2.489155083E1
2.808000000E1	2.916251426E1
2.812000000E1	3.442622047E1
2.816000000E1	4.073653789E1
2.820000000E1	4.944289438E1
2.824000000E1	5.948180098E1
2.828000000E1	7.430011605E1
2.832000000E1	8.662388438E1
2.836000000E1	9.200893122E1
2.840000000E1	9.457626474E1
2.844000000E1	9.685727603E1
