
t/1	ANGLE/1
0.000000000E0	-9.372752991E1
4.000000000E-2	-9.373324212E1
8.000000000E-2	-9.372994539E1
1.200000000E-1	-9.374068020E1
1.600000000E-1	-9.375233775E1
2.000000000E-1	-9.375400190E1
2.400000000E-1	-9.376329903E1
2.800000000E-1	-9.376100748E1
3.200000000E-1	-9.374613250E1
3.600000000E-1	-9.372726954E1
4.000000000E-1	-9.370906939E1
4.400000000E-1	-9.370442038E1
4.800000000E-1	-9.370531273E1
5.200000000E-1	-9.370147876E1
5.600000000E-1	-9.370806757E1
6.000000000E-1	-9.368957783E1
6.400000000E-1	-9.367245481E1
6.800000000E-1	-9.369655066E1
7.200000000E-1	-9.370898305E1
7.600000000E-1	-9.371168351E1
8.000000000E-1	-9.371116681E1
8.400000000E-1	-9.369195760E1
8.800000000E-1	-9.366225359E1
9.200000000E-1	-9.350305314E1
9.600000000E-1	-9.344662340E1
1.000000000E0	-9.277630225E1
1.040000000E0	-9.209454582E1
1.080000000E0	-9.121088833E1
1.120000000E0	-8.946833730E1
1.160000000E0	-8.824240880E1
1.200000000E0	-8.795406219E1
1.240000000E0	-9.061118873E1
1.280000000E0	-9.492394864E1
1.320000000E0	-1.009958766E2
1.360000000E0	-1.087810262E2
1.400000000E0	-1.173643836E2
1.440000000E0	-1.262157692E2
1.480000000E0	-1.346880624E2
1.520000000E0	-1.425126118E2
1.560000000E0	-1.485102652E2
1.600000000E0	-1.534916706E2
1.640000000E0	-1.567693824E2
1.680000000E0	-1.583318774E2
1.720000000E0	-1.591148895E2
1.760000000E0	-1.594092417E2
1.800000000E0	-1.594598673E2
1.840000000E0	-1.596580225E2
1.880000000E0	-1.596690702E2
1.920000000E0	-1.598006495E2
1.960000000E0	-1.597616052E2
2.000000000E0	-1.593886161E2
2.040000000E0	-1.587784517E2
2.080000000E0	-1.580285049E2
2.120000000E0	-1.566557690E2
2.160000000E0	-1.551916875E2
2.200000000E0	-1.528189722E2
2.240000000E0	-1.504700918E2
2.280000000E0	-1.480223650E2
2.320000000E0	-1.453660577E2
2.360000000E0	-1.426907307E2
2.400000000E0	-1.412052887E2
2.440000000E0	-1.403035921E2
2.480000000E0	-1.407682766E2
2.520000000E0	-1.418975955E2
2.560000000E0	-1.423268723E2
2.600000000E0	-1.427773301E2
2.640000000E0	-1.429471937E2
2.680000000E0	-1.429874876E2
2.720000000E0	-1.429431382E2
2.760000000E0	-1.429004962E2
2.800000000E0	-1.424873339E2
2.840000000E0	-1.412032535E2
2.880000000E0	-1.391504537E2
2.920000000E0	-1.360462084E2
2.960000000E0	-1.312336668E2
3.000000000E0	-1.250277241E2
3.040000000E0	-1.181848427E2
3.080000000E0	-1.119220543E2
3.120000000E0	-1.070543638E2
3.160000000E0	-1.034070088E2
3.200000000E0	-1.007362145E2
3.240000000E0	-9.885188153E1
3.280000000E0	-9.775190825E1
3.320000000E0	-9.758036574E1
3.360000000E0	-9.766647066E1
3.400000000E0	-9.847277319E1
3.440000000E0	-9.889876515E1
3.480000000E0	-9.929272547E1
3.520000000E0	-9.973040997E1
3.560000000E0	-1.015917149E2
3.600000000E0	-1.051195453E2
3.640000000E0	-1.101825166E2
3.680000000E0	-1.162891110E2
3.720000000E0	-1.238431723E2
3.760000000E0	-1.315912423E2
3.800000000E0	-1.389341890E2
3.840000000E0	-1.450903746E2
3.880000000E0	-1.504479263E2
3.920000000E0	-1.541968411E2
3.960000000E0	-1.570410785E2
4.000000000E0	-1.585239983E2
4.040000000E0	-1.597804431E2
4.080000000E0	-1.599789370E2
4.120000000E0	-1.600720933E2
4.160000000E0	-1.595143719E2
4.200000000E0	-1.585423897E2
4.240000000E0	-1.572252278E2
4.280000000E0	-1.553227314E2
4.320000000E0	-1.538257439E2
4.360000000E0	-1.518331849E2
4.400000000E0	-1.494810613E2
4.440000000E0	-1.465317326E2
4.480000000E0	-1.435117505E2
4.520000000E0	-1.408913734E2
4.560000000E0	-1.384756200E2
4.600000000E0	-1.364808516E2
4.640000000E0	-1.347599805E2
4.680000000E0	-1.333981253E2
4.720000000E0	-1.326415605E2
4.760000000E0	-1.323069676E2
4.800000000E0	-1.325611676E2
4.840000000E0	-1.333911449E2
4.880000000E0	-1.344288146E2
4.920000000E0	-1.351203784E2
4.960000000E0	-1.352244036E2
5.000000000E0	-1.343895251E2
5.040000000E0	-1.325064581E2
5.080000000E0	-1.284737797E2
5.120000000E0	-1.228849631E2
5.160000000E0	-1.173235044E2
5.200000000E0	-1.110504587E2
5.240000000E0	-1.055009744E2
5.280000000E0	-1.003571839E2
5.320000000E0	-9.711211740E1
5.360000000E0	-9.491887207E1
5.400000000E0	-9.306519084E1
5.440000000E0	-9.223838345E1
5.480000000E0	-9.258672450E1
5.520000000E0	-9.294368079E1
5.560000000E0	-9.387592165E1
5.600000000E0	-9.439512530E1
5.640000000E0	-9.528158234E1
5.680000000E0	-9.665481536E1
5.720000000E0	-9.952428626E1
5.760000000E0	-1.032742729E2
5.800000000E0	-1.079513101E2
5.840000000E0	-1.140729250E2
5.880000000E0	-1.209296387E2
5.920000000E0	-1.279656032E2
5.960000000E0	-1.343531060E2
6.000000000E0	-1.400807814E2
6.040000000E0	-1.443359440E2
6.080000000E0	-1.475614475E2
6.120000000E0	-1.504007619E2
6.160000000E0	-1.521430210E2
6.200000000E0	-1.535502968E2
6.240000000E0	-1.542483167E2
6.280000000E0	-1.542138081E2
6.320000000E0	-1.536993969E2
6.360000000E0	-1.530396450E2
6.400000000E0	-1.518493719E2
6.440000000E0	-1.500323844E2
6.480000000E0	-1.485326964E2
6.520000000E0	-1.470818722E2
6.560000000E0	-1.455443330E2
6.600000000E0	-1.437587100E2
6.640000000E0	-1.414648152E2
6.680000000E0	-1.396271887E2
6.720000000E0	-1.382647964E2
6.760000000E0	-1.389202090E2
6.800000000E0	-1.402207057E2
6.840000000E0	-1.417769059E2
6.880000000E0	-1.427109299E2
6.920000000E0	-1.430939608E2
6.960000000E0	-1.433225023E2
7.000000000E0	-1.433081208E2
7.040000000E0	-1.427875612E2
7.080000000E0	-1.405040780E2
7.120000000E0	-1.356720804E2
7.160000000E0	-1.289523221E2
7.200000000E0	-1.208920932E2
7.240000000E0	-1.128578646E2
7.280000000E0	-1.059770952E2
7.320000000E0	-1.003960030E2
7.360000000E0	-9.611934396E1
7.400000000E0	-9.390062967E1
7.440000000E0	-9.140882377E1
7.480000000E0	-9.059964104E1
7.520000000E0	-9.060096850E1
7.560000000E0	-9.148606852E1
7.600000000E0	-9.150375249E1
7.640000000E0	-9.262396083E1
7.680000000E0	-9.447331012E1
7.720000000E0	-9.834039197E1
7.760000000E0	-1.034332744E2
7.800000000E0	-1.098880874E2
7.840000000E0	-1.173500675E2
7.880000000E0	-1.246356609E2
7.920000000E0	-1.319960711E2
7.960000000E0	-1.388664075E2
8.000000000E0	-1.449038060E2
8.040000000E0	-1.498744533E2
8.080000000E0	-1.536132895E2
8.120000000E0	-1.562726202E2
8.160000000E0	-1.585454523E2
8.200000000E0	-1.595043494E2
8.240000000E0	-1.601851379E2
8.280000000E0	-1.599649955E2
8.320000000E0	-1.594090655E2
8.360000000E0	-1.584397744E2
8.400000000E0	-1.578676310E2
8.440000000E0	-1.564579457E2
8.480000000E0	-1.542062154E2
8.520000000E0	-1.516923556E2
8.560000000E0	-1.485206832E2
8.600000000E0	-1.457820652E2
8.640000000E0	-1.424577608E2
8.680000000E0	-1.380741867E2
8.720000000E0	-1.341149527E2
8.760000000E0	-1.319268324E2
8.800000000E0	-1.304290911E2
8.840000000E0	-1.295555533E2
8.880000000E0	-1.295350580E2
8.920000000E0	-1.297001756E2
8.960000000E0	-1.299832602E2
9.000000000E0	-1.299455939E2
9.040000000E0	-1.287299587E2
9.080000000E0	-1.254387957E2
9.120000000E0	-1.205933739E2
9.160000000E0	-1.145740407E2
9.200000000E0	-1.079452245E2
9.240000000E0	-1.021544586E2
9.280000000E0	-9.813745363E1
9.320000000E0	-9.525422897E1
9.360000000E0	-9.385502842E1
9.400000000E0	-9.444255878E1
9.440000000E0	-9.430387447E1
9.480000000E0	-9.448663885E1
9.520000000E0	-9.534223839E1
9.560000000E0	-9.549814454E1
9.600000000E0	-9.649760056E1
9.640000000E0	-9.727273894E1
9.680000000E0	-9.922316751E1
9.720000000E0	-1.031264586E2
9.760000000E0	-1.087935434E2
9.800000000E0	-1.157201429E2
9.840000000E0	-1.232171352E2
9.880000000E0	-1.312334636E2
9.920000000E0	-1.374647619E2
9.960000000E0	-1.435272626E2
1.000000000E1	-1.479432473E2
1.004000000E1	-1.515214556E2
1.008000000E1	-1.540846234E2
1.012000000E1	-1.557919353E2
1.016000000E1	-1.566966466E2
1.020000000E1	-1.569378799E2
1.024000000E1	-1.562254705E2
1.028000000E1	-1.552346821E2
1.032000000E1	-1.538237006E2
1.036000000E1	-1.521136971E2
1.040000000E1	-1.503334648E2
1.044000000E1	-1.483846203E2
1.048000000E1	-1.461683628E2
1.052000000E1	-1.441864402E2
1.056000000E1	-1.423141334E2
1.060000000E1	-1.400909692E2
1.064000000E1	-1.386108395E2
1.068000000E1	-1.372998487E2
1.072000000E1	-1.367882966E2
1.076000000E1	-1.365154082E2
1.080000000E1	-1.371122085E2
1.084000000E1	-1.368579656E2
1.088000000E1	-1.365917003E2
1.092000000E1	-1.366009526E2
1.096000000E1	-1.364628085E2
1.100000000E1	-1.362202298E2
1.104000000E1	-1.355715180E2
1.108000000E1	-1.340402664E2
1.112000000E1	-1.320623346E2
1.116000000E1	-1.293394283E2
1.120000000E1	-1.252319098E2
1.124000000E1	-1.197354235E2
1.128000000E1	-1.138412589E2
1.132000000E1	-1.088418275E2
1.136000000E1	-1.037205525E2
1.140000000E1	-9.993994675E1
1.144000000E1	-9.767398911E1
1.148000000E1	-9.690030454E1
1.152000000E1	-9.605882684E1
1.156000000E1	-9.584433507E1
1.160000000E1	-9.613476401E1
1.164000000E1	-9.644481277E1
1.168000000E1	-9.638388313E1
1.172000000E1	-9.656208998E1
1.176000000E1	-9.662052029E1
1.180000000E1	-9.696760188E1
1.184000000E1	-9.786707457E1
1.188000000E1	-9.966561126E1
1.192000000E1	-1.034471397E2
1.196000000E1	-1.086799545E2
1.200000000E1	-1.146400021E2
1.204000000E1	-1.212000211E2
1.208000000E1	-1.279537530E2
1.212000000E1	-1.344851635E2
1.216000000E1	-1.398685116E2
1.220000000E1	-1.445698702E2
1.224000000E1	-1.486753982E2
1.228000000E1	-1.515045760E2
1.232000000E1	-1.533838698E2
1.236000000E1	-1.546131512E2
1.240000000E1	-1.551453203E2
1.244000000E1	-1.545229692E2
1.248000000E1	-1.540656080E2
1.252000000E1	-1.532686930E2
1.256000000E1	-1.525578179E2
1.260000000E1	-1.511554040E2
1.264000000E1	-1.496183599E2
1.268000000E1	-1.472373706E2
1.272000000E1	-1.447886385E2
1.276000000E1	-1.422748357E2
1.280000000E1	-1.398267800E2
1.284000000E1	-1.374129876E2
1.288000000E1	-1.358427752E2
1.292000000E1	-1.344824293E2
1.296000000E1	-1.340861629E2
1.300000000E1	-1.339132468E2
1.304000000E1	-1.336549622E2
1.308000000E1	-1.336894423E2
1.312000000E1	-1.339301297E2
1.316000000E1	-1.341116607E2
1.320000000E1	-1.337094709E2
1.324000000E1	-1.316165956E2
1.328000000E1	-1.275306768E2
1.332000000E1	-1.216438607E2
1.336000000E1	-1.164718184E2
1.340000000E1	-1.107885266E2
1.344000000E1	-1.047657208E2
1.348000000E1	-1.006403703E2
1.352000000E1	-9.787567603E1
1.356000000E1	-9.644292576E1
1.360000000E1	-9.575946573E1
1.364000000E1	-9.531653324E1
1.368000000E1	-9.543384176E1
1.372000000E1	-9.612085720E1
1.376000000E1	-9.701730544E1
1.380000000E1	-9.759770744E1
1.384000000E1	-9.848539440E1
1.388000000E1	-9.990391249E1
1.392000000E1	-1.025748222E2
1.396000000E1	-1.062361873E2
1.400000000E1	-1.109541322E2
1.404000000E1	-1.163995714E2
1.408000000E1	-1.229366850E2
1.412000000E1	-1.292625079E2
1.416000000E1	-1.352173652E2
1.420000000E1	-1.405205854E2
1.424000000E1	-1.448559896E2
1.428000000E1	-1.488147639E2
1.432000000E1	-1.515397176E2
1.436000000E1	-1.532483050E2
1.440000000E1	-1.542600306E2
1.444000000E1	-1.547157240E2
1.448000000E1	-1.538471156E2
1.452000000E1	-1.529026363E2
1.456000000E1	-1.520334368E2
1.460000000E1	-1.507631716E2
1.464000000E1	-1.490571312E2
1.468000000E1	-1.471786931E2
1.472000000E1	-1.452099686E2
1.476000000E1	-1.425905283E2
1.480000000E1	-1.403901369E2
1.484000000E1	-1.384082822E2
1.488000000E1	-1.365910600E2
1.492000000E1	-1.348274476E2
1.496000000E1	-1.334534789E2
1.500000000E1	-1.324486514E2
1.504000000E1	-1.315005807E2
1.508000000E1	-1.309959504E2
1.512000000E1	-1.311761379E2
1.516000000E1	-1.313731867E2
1.520000000E1	-1.308877653E2
1.524000000E1	-1.290638123E2
1.528000000E1	-1.260606414E2
1.532000000E1	-1.213703006E2
1.536000000E1	-1.158186086E2
1.540000000E1	-1.093377964E2
1.544000000E1	-1.019794137E2
1.548000000E1	-9.478993394E1
1.552000000E1	-8.957459032E1
1.556000000E1	-8.645146528E1
1.560000000E1	-8.469801790E1
1.564000000E1	-8.412383856E1
1.568000000E1	-8.401326242E1
1.572000000E1	-8.401273559E1
1.576000000E1	-8.478647270E1
1.580000000E1	-8.533862373E1
1.584000000E1	-8.549483760E1
1.588000000E1	-8.557674403E1
1.592000000E1	-8.590979458E1
1.596000000E1	-8.636244870E1
1.600000000E1	-8.721135086E1
1.604000000E1	-8.886170264E1
1.608000000E1	-9.141021079E1
1.612000000E1	-9.597401139E1
1.616000000E1	-1.021971797E2
1.620000000E1	-1.093044940E2
1.624000000E1	-1.170380369E2
1.628000000E1	-1.247934788E2
1.632000000E1	-1.319092471E2
1.636000000E1	-1.380932784E2
1.640000000E1	-1.430124171E2
1.644000000E1	-1.470189482E2
1.648000000E1	-1.499954931E2
1.652000000E1	-1.517647679E2
1.656000000E1	-1.526198330E2
1.660000000E1	-1.532093486E2
1.664000000E1	-1.532807559E2
1.668000000E1	-1.522605877E2
1.672000000E1	-1.514176527E2
1.676000000E1	-1.499902635E2
1.680000000E1	-1.483371410E2
1.684000000E1	-1.467017810E2
1.688000000E1	-1.442877374E2
1.692000000E1	-1.420619740E2
1.696000000E1	-1.397047826E2
1.700000000E1	-1.372384562E2
1.704000000E1	-1.353558766E2
1.708000000E1	-1.338939830E2
1.712000000E1	-1.326129326E2
1.716000000E1	-1.321048439E2
1.720000000E1	-1.318405226E2
1.724000000E1	-1.316622440E2
1.728000000E1	-1.316686209E2
1.732000000E1	-1.319673219E2
1.736000000E1	-1.324635740E2
1.740000000E1	-1.328502165E2
1.744000000E1	-1.328376793E2
1.748000000E1	-1.320032104E2
1.752000000E1	-1.298504555E2
1.756000000E1	-1.256952932E2
1.760000000E1	-1.202990718E2
1.764000000E1	-1.148066756E2
1.768000000E1	-1.095177215E2
1.772000000E1	-1.045110853E2
1.776000000E1	-1.005927820E2
1.780000000E1	-9.739544398E1
1.784000000E1	-9.490459392E1
1.788000000E1	-9.352912845E1
1.792000000E1	-9.277086609E1
1.796000000E1	-9.293149239E1
1.800000000E1	-9.364816850E1
1.804000000E1	-9.371962166E1
1.808000000E1	-9.424480685E1
1.812000000E1	-9.529606466E1
1.816000000E1	-9.708231122E1
1.820000000E1	-1.000799713E2
1.824000000E1	-1.041128460E2
1.828000000E1	-1.090755696E2
1.832000000E1	-1.148398927E2
1.836000000E1	-1.212491472E2
1.840000000E1	-1.277848618E2
1.844000000E1	-1.333814315E2
1.848000000E1	-1.389753519E2
1.852000000E1	-1.432812703E2
1.856000000E1	-1.470488058E2
1.860000000E1	-1.495480778E2
1.864000000E1	-1.515026394E2
1.868000000E1	-1.532491037E2
1.872000000E1	-1.540116827E2
1.876000000E1	-1.535274587E2
1.880000000E1	-1.523064875E2
1.884000000E1	-1.512876046E2
1.888000000E1	-1.499116773E2
1.892000000E1	-1.488651179E2
1.896000000E1	-1.468695092E2
1.900000000E1	-1.446383766E2
1.904000000E1	-1.419674574E2
1.908000000E1	-1.399037923E2
1.912000000E1	-1.377154757E2
1.916000000E1	-1.359102845E2
1.920000000E1	-1.343633550E2
1.924000000E1	-1.333089568E2
1.928000000E1	-1.325946239E2
1.932000000E1	-1.319675040E2
1.936000000E1	-1.318746557E2
1.940000000E1	-1.321360806E2
1.944000000E1	-1.326588723E2
1.948000000E1	-1.329041672E2
1.952000000E1	-1.329364621E2
1.956000000E1	-1.328937707E2
1.960000000E1	-1.320015762E2
1.964000000E1	-1.303407805E2
1.968000000E1	-1.278439666E2
1.972000000E1	-1.249449431E2
1.976000000E1	-1.214005333E2
1.980000000E1	-1.171674287E2
1.984000000E1	-1.133760066E2
1.988000000E1	-1.098390981E2
1.992000000E1	-1.068326485E2
1.996000000E1	-1.051305583E2
2.000000000E1	-1.048073922E2
2.004000000E1	-1.054494298E2
2.008000000E1	-1.045432676E2
2.012000000E1	-1.048232091E2
2.016000000E1	-1.054940330E2
2.020000000E1	-1.058970357E2
2.024000000E1	-1.061049001E2
2.028000000E1	-1.061737091E2
2.032000000E1	-1.062771155E2
2.036000000E1	-1.067048136E2
2.040000000E1	-1.074034703E2
2.044000000E1	-1.084949626E2
2.048000000E1	-1.100877328E2
2.052000000E1	-1.127147082E2
2.056000000E1	-1.170432270E2
2.060000000E1	-1.224626637E2
2.064000000E1	-1.282281981E2
2.068000000E1	-1.339288207E2
2.072000000E1	-1.386078252E2
2.076000000E1	-1.430824490E2
2.080000000E1	-1.468846603E2
2.084000000E1	-1.498869383E2
2.088000000E1	-1.524443951E2
2.092000000E1	-1.539548286E2
2.096000000E1	-1.544083370E2
2.100000000E1	-1.542288379E2
2.104000000E1	-1.537924438E2
2.108000000E1	-1.530525523E2
2.112000000E1	-1.517738227E2
2.116000000E1	-1.496563105E2
2.120000000E1	-1.478665809E2
2.124000000E1	-1.454333491E2
2.128000000E1	-1.431571934E2
2.132000000E1	-1.408551916E2
2.136000000E1	-1.390453828E2
2.140000000E1	-1.369885141E2
2.144000000E1	-1.355444545E2
2.148000000E1	-1.350561921E2
2.152000000E1	-1.353870020E2
2.156000000E1	-1.356408084E2
2.160000000E1	-1.359689776E2
2.164000000E1	-1.361106978E2
2.168000000E1	-1.359641313E2
2.172000000E1	-1.346879095E2
2.176000000E1	-1.323977287E2
2.180000000E1	-1.278291673E2
2.184000000E1	-1.200989758E2
2.188000000E1	-1.132969836E2
2.192000000E1	-1.081786224E2
2.196000000E1	-1.033126782E2
2.200000000E1	-9.983675778E1
2.204000000E1	-9.789574215E1
2.208000000E1	-9.727181753E1
2.212000000E1	-9.730998107E1
2.216000000E1	-9.681126909E1
2.220000000E1	-9.737915370E1
2.224000000E1	-9.808170661E1
2.228000000E1	-9.877039883E1
2.232000000E1	-9.955504332E1
2.236000000E1	-9.991250278E1
2.240000000E1	-1.007684533E2
2.244000000E1	-1.027953898E2
2.248000000E1	-1.066532803E2
2.252000000E1	-1.117675883E2
2.256000000E1	-1.181368779E2
2.260000000E1	-1.250042003E2
2.264000000E1	-1.320740606E2
2.268000000E1	-1.382419288E2
2.272000000E1	-1.439309895E2
2.276000000E1	-1.480763173E2
2.280000000E1	-1.511959052E2
2.284000000E1	-1.532556995E2
2.288000000E1	-1.543703234E2
2.292000000E1	-1.548585944E2
2.296000000E1	-1.549058190E2
2.300000000E1	-1.541892968E2
2.304000000E1	-1.524800752E2
2.308000000E1	-1.507821880E2
2.312000000E1	-1.486616467E2
2.316000000E1	-1.468795324E2
2.320000000E1	-1.448989768E2
2.324000000E1	-1.429543805E2
2.328000000E1	-1.414973443E2
2.332000000E1	-1.393701266E2
2.336000000E1	-1.373123012E2
2.340000000E1	-1.355808533E2
2.344000000E1	-1.342061962E2
2.348000000E1	-1.336316318E2
2.352000000E1	-1.332704934E2
2.356000000E1	-1.330596316E2
2.360000000E1	-1.323801308E2
2.364000000E1	-1.316002945E2
2.368000000E1	-1.298102266E2
2.372000000E1	-1.269047157E2
2.376000000E1	-1.232037965E2
2.380000000E1	-1.201727925E2
2.384000000E1	-1.176632964E2
2.388000000E1	-1.152392403E2
2.392000000E1	-1.133866450E2
2.396000000E1	-1.112368691E2
2.400000000E1	-1.094276935E2
2.404000000E1	-1.093716978E2
2.408000000E1	-1.096520309E2
2.412000000E1	-1.102879964E2
2.416000000E1	-1.108745074E2
2.420000000E1	-1.115994205E2
2.424000000E1	-1.116467865E2
2.428000000E1	-1.115729868E2
2.432000000E1	-1.113118733E2
2.436000000E1	-1.114234546E2
2.440000000E1	-1.116260766E2
2.444000000E1	-1.117084054E2
2.448000000E1	-1.117950837E2
2.452000000E1	-1.118338646E2
2.456000000E1	-1.118597741E2
2.460000000E1	-1.118424839E2
2.464000000E1	-1.118536630E2
2.468000000E1	-1.118664994E2
2.472000000E1	-1.118743070E2
2.476000000E1	-1.118316505E2
2.480000000E1	-1.116987133E2
2.484000000E1	-1.115282070E2
2.488000000E1	-1.119935871E2
2.492000000E1	-1.118168084E2
2.496000000E1	-1.120173077E2
2.500000000E1	-1.127798733E2
2.504000000E1	-1.142342774E2
2.508000000E1	-1.167959007E2
2.512000000E1	-1.204198750E2
2.516000000E1	-1.247739344E2
2.520000000E1	-1.297994326E2
2.524000000E1	-1.348002912E2
2.528000000E1	-1.396437110E2
2.532000000E1	-1.441697900E2
2.536000000E1	-1.477825274E2
2.540000000E1	-1.505125002E2
2.544000000E1	-1.517274048E2
2.548000000E1	-1.523978005E2
2.552000000E1	-1.524740730E2
2.556000000E1	-1.519305570E2
2.560000000E1	-1.504431701E2
2.564000000E1	-1.496231524E2
2.568000000E1	-1.482035632E2
2.572000000E1	-1.464979809E2
2.576000000E1	-1.443861683E2
2.580000000E1	-1.419719216E2
2.584000000E1	-1.397162809E2
2.588000000E1	-1.375444675E2
2.592000000E1	-1.356998871E2
2.596000000E1	-1.344192106E2
2.600000000E1	-1.335628722E2
2.604000000E1	-1.333910737E2
2.608000000E1	-1.332135074E2
2.612000000E1	-1.332740199E2
2.616000000E1	-1.333702046E2
2.620000000E1	-1.334319920E2
2.624000000E1	-1.332496736E2
2.628000000E1	-1.323006515E2
2.632000000E1	-1.305350120E2
2.636000000E1	-1.281724017E2
2.640000000E1	-1.258711292E2
2.644000000E1	-1.229719668E2
2.648000000E1	-1.201642136E2
2.652000000E1	-1.172555067E2
2.656000000E1	-1.145012620E2
2.660000000E1	-1.121382493E2
2.664000000E1	-1.098710412E2
2.668000000E1	-1.084566196E2
2.672000000E1	-1.077607795E2
2.676000000E1	-1.072753182E2
2.680000000E1	-1.071357268E2
2.684000000E1	-1.071912050E2
2.688000000E1	-1.076553759E2
2.692000000E1	-1.076905531E2
2.696000000E1	-1.078667467E2
2.700000000E1	-1.078685631E2
2.704000000E1	-1.078981365E2
2.708000000E1	-1.079168059E2
2.712000000E1	-1.079887730E2
2.716000000E1	-1.082208246E2
2.720000000E1	-1.080700925E2
2.724000000E1	-1.088513535E2
2.728000000E1	-1.105681393E2
2.732000000E1	-1.136999111E2
2.736000000E1	-1.178432453E2
2.740000000E1	-1.225707919E2
2.744000000E1	-1.280049342E2
2.748000000E1	-1.332998031E2
